"Time","Total Kinetic Energy (integral of KE density) Monitor - Time: Total Kinetic Energy (integral of KE density) Monitor - Time (kg-m^5/s^2)"
0.02,9.867319703127812
0.04,9.864090206920489
0.06,9.860793766175195
0.08,9.857415237786565
0.1,9.853954093880246
0.12000000000000001,9.850370349062734
0.14,9.84666905024407
0.16,9.842852091038173
0.18,9.838924796491781
0.19999999999999998,9.834906599471516
0.21999999999999997,9.830801617978768
0.23999999999999996,9.826598216314167
0.25999999999999995,9.822299622573016
0.27999999999999997,9.81790280452209
0.3,9.813416753487461
0.32,9.808841041621195
0.34,9.804182042598889
0.36000000000000004,9.799443202647518
0.38000000000000006,9.794628468283847
0.4000000000000001,9.789736213661051
0.4200000000000001,9.784767209165071
0.4400000000000001,9.779721112934618
0.46000000000000013,9.774596277706756
0.48000000000000015,9.769393421938894
0.5000000000000001,9.764117914781405
0.5200000000000001,9.758774669848304
0.5400000000000001,9.753363265683411
0.5600000000000002,9.747886168654004
0.5800000000000002,9.742339812586602
0.6000000000000002,9.736730942568519
0.6200000000000002,9.731065327142078
0.6400000000000002,9.72534192847557
0.6600000000000003,9.719562107740103
0.6800000000000003,9.71372554757485
0.7000000000000003,9.707833752122422
0.7200000000000003,9.701888657146508
0.7400000000000003,9.695892646563962
0.7600000000000003,9.689848968172946
0.7800000000000004,9.68375663667518
0.8000000000000004,9.6776209282692
0.8200000000000004,9.671441500736847
0.8400000000000004,9.665218967128183
0.8600000000000004,9.658954668018385
0.8800000000000004,9.652642332638422
0.9000000000000005,9.646285433018354
0.9200000000000005,9.63988694264174
0.9400000000000005,9.633451109040596
0.9600000000000005,9.62697978159171
0.9800000000000005,9.6204726925646
1.0000000000000004,9.613930640084003
1.0200000000000005,9.607345989780814
1.0400000000000005,9.60072704987941
1.0600000000000005,9.594074733622808
1.0800000000000005,9.587389751277422
1.1000000000000005,9.580672127144776
1.1200000000000006,9.573921470929843
1.1400000000000006,9.56713921126953
1.1600000000000006,9.560325593963015
1.1800000000000006,9.553478695270933
1.2000000000000006,9.546596800372164
1.2200000000000006,9.539685045193842
1.2400000000000007,9.532746611394886
1.2600000000000007,9.525777368616144
1.2800000000000007,9.518777349603637
1.3000000000000007,9.51174842556218
1.3200000000000007,9.504693638979155
1.3400000000000007,9.497614233672103
1.3600000000000008,9.490507220923732
1.3800000000000008,9.483373019708763
1.4000000000000008,9.47621687917155
1.4200000000000008,9.469038450818427
1.4400000000000008,9.461835261072961
1.4600000000000009,9.454608464476848
1.4800000000000009,9.447362919391644
1.5000000000000009,9.440098788801178
1.520000000000001,9.43281617372101
1.540000000000001,9.42551193521162
1.560000000000001,9.418187913907074
1.580000000000001,9.410845446763673
1.600000000000001,9.40348472957417
1.620000000000001,9.396107489073557
1.640000000000001,9.388713376537124
1.660000000000001,9.38130233130609
1.680000000000001,9.37387163818979
1.700000000000001,9.366424448530847
1.720000000000001,9.35896205221304
1.740000000000001,9.35148408795095
1.7600000000000011,9.343990804460393
1.7800000000000011,9.336483089037564
1.8000000000000012,9.32896180513447
1.8200000000000012,9.32142737107415
1.8400000000000012,9.313877498839883
1.8600000000000012,9.306313438982995
1.8800000000000012,9.298739217900255
1.9000000000000012,9.291153970554234
1.9200000000000013,9.283556422032172
1.9400000000000013,9.275947765729537
1.9600000000000013,9.268330409145408
1.9800000000000013,9.260702155408904
2.0000000000000013,9.253063839711665
2.0200000000000014,9.245413196860152
2.0400000000000014,9.237756622099191
2.0600000000000014,9.230101269416657
2.0800000000000014,9.222441695779416
2.1000000000000014,9.214772173508878
2.1200000000000014,9.207090628076136
2.1400000000000015,9.199403934111574
2.1600000000000015,9.191713456950296
2.1800000000000015,9.184016877998296
2.2000000000000015,9.176313520023777
2.2200000000000015,9.168605839099396
2.2400000000000015,9.160894624297526
2.2600000000000016,9.153179451305592
2.2800000000000016,9.14546030900171
2.3000000000000016,9.137738541155993
2.3200000000000016,9.130013761963136
2.3400000000000016,9.122284950575455
2.3600000000000017,9.114552605031143
2.3800000000000017,9.106817231784168
2.4000000000000017,9.099078765034612
2.4200000000000017,9.091338667164202
2.4400000000000017,9.083599266504796
2.4600000000000017,9.075859007878861
2.4800000000000018,9.068118183774699
2.5000000000000018,9.060376985571587
2.520000000000002,9.052634593217515
2.540000000000002,9.044891953995911
2.560000000000002,9.03714915337823
2.580000000000002,9.029406967027331
2.600000000000002,9.021665773280285
2.620000000000002,9.01392511865394
2.640000000000002,9.00618502760064
2.660000000000002,8.998450210664883
2.680000000000002,8.990717581515163
2.700000000000002,8.982985505564605
2.720000000000002,8.97525302729299
2.740000000000002,8.967520755301962
2.760000000000002,8.959791344171384
2.780000000000002,8.952065002347439
2.800000000000002,8.944341840593165
2.820000000000002,8.936621899972884
2.840000000000002,8.928904787004722
2.860000000000002,8.921190537794475
2.880000000000002,8.913480578374914
2.900000000000002,8.905775925131035
2.920000000000002,8.898075637021256
2.940000000000002,8.890380733010065
2.960000000000002,8.882690855584148
2.980000000000002,8.875006463867479
3.000000000000002,8.86732753631324
3.0200000000000022,8.859654236409542
3.0400000000000023,8.851987208268632
3.0600000000000023,8.84432679552207
3.0800000000000023,8.836673367951178
3.1000000000000023,8.829026462581139
3.1200000000000023,8.821384717323507
3.1400000000000023,8.813745355798538
3.1600000000000024,8.806107654770166
3.1800000000000024,8.798477140147696
3.2000000000000024,8.790854118892579
3.2200000000000024,8.783238818087886
3.2400000000000024,8.775630099594842
3.2600000000000025,8.768028737503343
3.2800000000000025,8.76043655192195
3.3000000000000025,8.752853023107068
3.3200000000000025,8.745278230363088
3.3400000000000025,8.737712636078452
3.3600000000000025,8.73015771038712
3.3800000000000026,8.722612467606421
3.4000000000000026,8.715076275707148
3.4200000000000026,8.707549501835317
3.4400000000000026,8.700033092058451
3.4600000000000026,8.692526879686547
3.4800000000000026,8.685031053257745
3.5000000000000027,8.677545405444747
3.5200000000000027,8.67007150199068
3.5400000000000027,8.662608229287784
3.5600000000000027,8.655155542391913
3.5800000000000027,8.64771278072256
3.6000000000000028,8.640280009732065
3.6200000000000028,8.63285785868283
3.640000000000003,8.62543987968445
3.660000000000003,8.618028454540061
3.680000000000003,8.610628797872103
3.700000000000003,8.603234642033415
3.720000000000003,8.59584489437459
3.740000000000003,8.588463525264206
3.760000000000003,8.581093561146787
3.780000000000003,8.573733506746962
3.800000000000003,8.566381699158436
3.820000000000003,8.559038713008338
3.840000000000003,8.551705890172137
3.860000000000003,8.544383295348013
3.880000000000003,8.537071515333967
3.900000000000003,8.529770670668256
3.920000000000003,8.522479113078367
3.940000000000003,8.51519615753979
3.960000000000003,8.507923252611802
3.980000000000003,8.500660975823166
4.000000000000003,8.493409280139627
4.020000000000002,8.486167887746813
4.040000000000002,8.478933398465418
4.060000000000001,8.471708252973489
4.080000000000001,8.464493940152671
4.1000000000000005,8.45729129919442
4.12,8.450099312607378
4.14,8.442916999009036
4.159999999999999,8.435744876156699
4.179999999999999,8.42858209506819
4.199999999999998,8.421429739025438
4.219999999999998,8.414287810237083
4.2399999999999975,8.407154837976606
4.259999999999997,8.400029974216288
4.279999999999997,8.392915267015125
4.299999999999996,8.38581231073086
4.319999999999996,8.378720732903627
4.339999999999995,8.37164055518503
4.359999999999995,8.364572856047623
4.379999999999995,8.357516768342567
4.399999999999994,8.350471702518284
4.419999999999994,8.34343809874214
4.439999999999993,8.336415988222424
4.459999999999993,8.329403553078102
4.479999999999992,8.322400413532419
4.499999999999992,8.315408450915129
4.519999999999992,8.308428202517032
4.539999999999991,8.301459508745786
4.559999999999991,8.294502106110686
4.57999999999999,8.287556890241515
4.59999999999999,8.28062371031372
4.6199999999999894,8.273702242719784
4.639999999999989,8.266792232077169
4.659999999999989,8.259893228327513
4.679999999999988,8.25300534976886
4.699999999999988,8.246128859040834
4.719999999999987,8.239263794278802
4.739999999999987,8.232409947517075
4.7599999999999865,8.225566822206998
4.779999999999986,8.218734701025996
4.799999999999986,8.211913583964186
4.819999999999985,8.205103365941213
4.839999999999985,8.19830347658088
4.859999999999984,8.19151417361531
4.879999999999984,8.184735542443242
4.8999999999999835,8.177967590599698
4.919999999999983,8.171210472244697
4.939999999999983,8.164464169997336
4.959999999999982,8.157728645101884
4.979999999999982,8.151003857209826
4.999999999999981,8.144289556093105
5.019999999999981,8.137585547942885
5.0399999999999805,8.130891894643025
5.05999999999998,8.124208555162369
5.07999999999998,8.117535484423541
5.099999999999979,8.11087193293966
5.119999999999979,8.104218297270046
5.139999999999978,8.097573855729811
5.159999999999978,8.090938527946923
5.1799999999999775,8.084311576346803
5.199999999999977,8.077693169259971
5.219999999999977,8.07108437092214
5.239999999999976,8.064484210977888
5.259999999999976,8.057892328295825
5.279999999999975,8.051309696012133
5.299999999999975,8.04473578919577
5.3199999999999745,8.038170457413335
5.339999999999974,8.031613507458234
5.359999999999974,8.025065082530961
5.379999999999973,8.018525522527552
5.399999999999973,8.011994442979748
5.419999999999972,8.00547185224627
5.439999999999972,7.9989578190424995
5.4599999999999715,7.992452102575174
5.479999999999971,7.985954721090272
5.499999999999971,7.979465560199176
5.51999999999997,7.972984169887776
5.53999999999997,7.966511405991852
5.559999999999969,7.9600470988702
5.579999999999969,7.953590471883849
5.599999999999969,7.947141396055809
5.619999999999968,7.9406998956017745
5.639999999999968,7.934266278863653
5.659999999999967,7.927839871645971
5.679999999999967,7.92142083471289
5.699999999999966,7.9150093293776544
5.719999999999966,7.908605262741657
5.739999999999966,7.902208766685189
5.759999999999965,7.895819485564926
5.779999999999965,7.889437656714157
5.799999999999964,7.883063177257806
5.819999999999964,7.876696028675452
5.839999999999963,7.870336120658082
5.859999999999963,7.863983572504201
5.879999999999963,7.857638054132185
5.899999999999962,7.851300019834871
5.919999999999962,7.8449691549557095
5.939999999999961,7.838645517692601
5.959999999999961,7.832328768193672
5.9799999999999605,7.826018818072192
5.99999999999996,7.8197158431940315
6.01999999999996,7.813419824226802
6.039999999999959,7.807130771268515
6.059999999999959,7.800848299666213
6.079999999999958,7.794572142595236
6.099999999999958,7.788302592747075
6.1199999999999575,7.782039708548541
6.139999999999957,7.775783475510884
6.159999999999957,7.76953377900841
6.179999999999956,7.763290122578083
6.199999999999956,7.757052855008144
6.219999999999955,7.75082199743381
6.239999999999955,7.744597436927654
6.2599999999999545,7.738379208283283
6.279999999999954,7.732167086521689
6.299999999999954,7.725961242070764
6.319999999999953,7.719761794248631
6.339999999999953,7.713568696991379
6.359999999999952,7.707381558064978
6.379999999999952,7.701201037227891
6.3999999999999515,7.695026837398934
6.419999999999951,7.688858592273123
6.439999999999951,7.68269643120363
6.45999999999995,7.676540313345839
6.47999999999995,7.670390000829433
6.499999999999949,7.664245633957105
6.519999999999949,7.658107876118891
6.5399999999999485,7.651976350575625
6.559999999999948,7.64585077767669
6.579999999999948,7.639731034634291
6.599999999999947,7.63361725416993
6.619999999999947,7.627509507451307
6.639999999999946,7.621407574596044
6.659999999999946,7.615311451174823
6.6799999999999455,7.609221101313474
6.699999999999945,7.603136493073782
6.719999999999945,7.597057524340137
6.739999999999944,7.59098400860055
6.759999999999944,7.584916057646817
6.779999999999943,7.57885329531704
6.799999999999943,7.572795831009431
6.8199999999999426,7.566743715515518
6.839999999999942,7.560696882761023
6.859999999999942,7.554655294439488
6.879999999999941,7.5486186367678805
6.899999999999941,7.54258691624298
6.91999999999994,7.536560132819044
6.93999999999994,7.530538534775486
6.95999999999994,7.524521923701526
6.979999999999939,7.518510296523965
6.999999999999939,7.512503445955973
7.019999999999938,7.506501470725277
7.039999999999938,7.500504388889167
7.059999999999937,7.494511978358778
7.079999999999937,7.4885244109241516
7.099999999999937,7.4825414943337
7.119999999999936,7.476563101528884
7.139999999999936,7.470588885770827
7.159999999999935,7.464619170715938
7.179999999999935,7.458653833003584
7.1999999999999345,7.452693257769935
7.219999999999934,7.446737180207155
7.239999999999934,7.440785578551577
7.259999999999933,7.4348384086563435
7.279999999999933,7.4288958232386495
7.299999999999932,7.422957741466402
7.319999999999932,7.417023997886068
7.3399999999999315,7.411094654707357
7.359999999999931,7.4051694291337835
7.379999999999931,7.399248163545677
7.39999999999993,7.39333076443525
7.41999999999993,7.387417388843068
7.439999999999929,7.381508153173981
7.459999999999929,7.375603004805768
7.4799999999999285,7.369701735630662
7.499999999999928,7.363804509061149
7.519999999999928,7.357911267169902
7.539999999999927,7.3520220656563975
7.559999999999927,7.346137004015054
7.579999999999926,7.340256075183813
7.599999999999926,7.334378839317942
7.6199999999999255,7.328505492012958
7.639999999999925,7.322636012261713
7.659999999999925,7.316770478560783
7.679999999999924,7.310909009314255
7.699999999999924,7.3050514322928315
7.719999999999923,7.299197754849196
7.739999999999923,7.293347882842515
7.7599999999999225,7.287501786413042
7.779999999999922,7.2816605229638025
7.799999999999922,7.275823670200191
7.819999999999921,7.269990159918694
7.839999999999921,7.2641599127469085
7.85999999999992,7.25833289239033
7.87999999999992,7.252510640850282
7.8999999999999195,7.24669307055476
7.919999999999919,7.240879795310276
7.939999999999919,7.235070342014659
7.959999999999918,7.229265491776303
7.979999999999918,7.22346488955847
7.999999999999917,7.217668554529293
8.019999999999918,7.211876521335698
8.039999999999917,7.20608863074108
8.059999999999917,7.2003048674720125
8.079999999999917,7.194525146426445
8.099999999999916,7.188748142157237
8.119999999999916,7.182972980294515
8.139999999999915,7.177201822747349
8.159999999999915,7.1714357542022915
8.179999999999914,7.165674507760349
8.199999999999914,7.159916827203732
8.219999999999914,7.154163040886949
8.239999999999913,7.148412581372861
8.259999999999913,7.142667214801387
8.279999999999912,7.136926365686467
8.299999999999912,7.13119007879145
8.319999999999911,7.125458488856383
8.339999999999911,7.119731448875994
8.35999999999991,7.114009110749428
8.37999999999991,7.108291476805189
8.39999999999991,7.10257866892879
8.41999999999991,7.096870820162386
8.439999999999909,7.091167565250972
8.459999999999908,7.085469004683814
8.479999999999908,7.079775480842321
8.499999999999908,7.074086952842171
8.519999999999907,7.068403150092352
8.539999999999907,7.062724183397586
8.559999999999906,7.057052051550678
8.579999999999906,7.051386618516627
8.599999999999905,7.045726323570477
8.619999999999905,7.040070725211061
8.639999999999905,7.034420253504388
8.659999999999904,7.028775125958837
8.679999999999904,7.023135585769058
8.699999999999903,7.017501286755326
8.719999999999903,7.011871961161679
8.739999999999903,7.006248156042931
8.759999999999902,7.0006301448031945
8.779999999999902,6.995018303378993
8.799999999999901,6.989411680315742
8.8199999999999,6.983808692256206
8.8399999999999,6.9782085242320555
8.8599999999999,6.972612789117594
8.8799999999999,6.967021400133833
8.899999999999899,6.961434059467638
8.919999999999899,6.9558501849160175
8.939999999999898,6.950269864063447
8.959999999999898,6.944693028996809
8.979999999999897,6.939119619589574
8.999999999999897,6.933549672402846
9.019999999999897,6.927983088589555
9.039999999999896,6.9224198489799065
9.059999999999896,6.916860169176429
9.079999999999895,6.911304393701018
9.099999999999895,6.905751981248218
9.119999999999894,6.900203511258274
9.139999999999894,6.894658848922463
9.159999999999894,6.889118443834039
9.179999999999893,6.883582031657729
9.199999999999893,6.8780492700729265
9.219999999999892,6.872520374276837
9.239999999999892,6.866995833389689
9.259999999999891,6.86147583572372
9.279999999999891,6.855960202537776
9.29999999999989,6.850448977227498
9.31999999999989,6.844942350895779
9.33999999999989,6.839440385787787
9.35999999999989,6.8339433068413875
9.379999999999889,6.828451373383352
9.399999999999888,6.822964057185355
9.419999999999888,6.817481304602355
9.439999999999888,6.812003552976917
9.459999999999887,6.806530688176289
9.479999999999887,6.801062591498226
9.499999999999886,6.79559964660938
9.519999999999886,6.790141945080537
9.539999999999885,6.784689576070262
9.559999999999885,6.779242711639184
9.579999999999885,6.773801164469693
9.599999999999884,6.768365099731751
9.619999999999884,6.762934744808674
9.639999999999883,6.757510134880994
9.659999999999883,6.7520913322853024
9.679999999999882,6.746678332440039
9.699999999999882,6.741271266717964
9.719999999999882,6.735869927981805
9.739999999999881,6.730474587221341
9.75999999999988,6.725085103694057
9.77999999999988,6.719701308987357
9.79999999999988,6.714323502007197
9.81999999999988,6.708951896048263
9.839999999999879,6.703586016111613
9.859999999999879,6.698226626180741
9.879999999999878,6.692873868037896
9.899999999999878,6.6875276176282465
9.919999999999877,6.682187871210272
9.939999999999877,6.676854787137587
9.959999999999877,6.671528346635736
9.979999999999876,6.6662084176780185
9.999999999999876,6.660894825969381
