"Time","Total Kinetic Energy (integral of KE density) Monitor - Time: Total Kinetic Energy (integral of KE density) Monitor - Time (kg-m^5/s^2)"
0.02,9.869182935494534
0.04,9.868790246387578
0.06,9.86842358467389
0.08,9.868052755755752
0.1,9.867667784607946
0.12000000000000001,9.867280885256227
0.14,9.866891621627108
0.16,9.86649593287115
0.18,9.866093565781341
0.19999999999999998,9.865684860591479
0.21999999999999997,9.865271618196152
0.23999999999999996,9.864854702038059
0.25999999999999995,9.864433254133115
0.27999999999999997,9.864007527892998
0.3,9.863577838487895
0.32,9.863144435972494
0.34,9.862707766636452
0.36000000000000004,9.86226787732694
0.38000000000000006,9.861824845614986
0.4000000000000001,9.861378641308207
0.4200000000000001,9.86092954376607
0.4400000000000001,9.860477672728228
0.46000000000000013,9.860022925255153
0.48000000000000015,9.85956546074034
0.5000000000000001,9.859105718489154
0.5200000000000001,9.85864335867624
0.5400000000000001,9.858178804135193
0.5600000000000002,9.857712097939245
0.5800000000000002,9.857243251616907
0.6000000000000002,9.856772236231262
0.6200000000000002,9.856299279331978
0.6400000000000002,9.85582444925325
0.6600000000000003,9.855347793640263
0.6800000000000003,9.854869332996254
0.7000000000000003,9.85438896918037
0.7200000000000003,9.853906920716113
0.7400000000000003,9.853423434919918
0.7600000000000003,9.852938483023777
0.7800000000000004,9.852452036052135
0.8000000000000004,9.85196411880047
0.8200000000000004,9.851474915317384
0.8400000000000004,9.850984371651183
0.8600000000000004,9.850492415944931
0.8800000000000004,9.849999289177209
0.9000000000000005,9.84950493687779
0.9200000000000005,9.84900934075976
0.9400000000000005,9.84851259140102
0.9600000000000005,9.848014696681275
0.9800000000000005,9.847515771374576
1.0000000000000004,9.847015811363482
1.0200000000000005,9.846514853870671
1.0400000000000005,9.846012940321032
1.0600000000000005,9.845510093373868
1.0800000000000005,9.845006164788325
1.1000000000000005,9.844501124281406
1.1200000000000006,9.843995274054912
1.1400000000000006,9.843488616248395
1.1600000000000006,9.842981230971244
1.1800000000000006,9.842473003715282
1.2000000000000006,9.841963866543765
1.2200000000000006,9.84145388187034
1.2400000000000007,9.840943136102222
1.2600000000000007,9.840431672830771
1.2800000000000007,9.83991945929408
1.3000000000000007,9.83940649272927
1.3200000000000007,9.838892787119946
1.3400000000000007,9.838378366706472
1.3600000000000008,9.837863266068123
1.3800000000000008,9.837347466960079
1.4000000000000008,9.83683098388294
1.4200000000000008,9.836313741125755
1.4400000000000008,9.835795920017066
1.4600000000000009,9.835277528662273
1.4800000000000009,9.834758544287787
1.5000000000000009,9.834238982901745
1.520000000000001,9.833718875114064
1.540000000000001,9.833198234211807
1.560000000000001,9.83267705563243
1.580000000000001,9.832155390807683
1.600000000000001,9.831633249152764
1.620000000000001,9.831110640350001
1.640000000000001,9.83058757097007
1.660000000000001,9.83006405754385
1.680000000000001,9.829540120025152
1.700000000000001,9.8290157738937
1.720000000000001,9.828491030747749
1.740000000000001,9.827965893444626
1.7600000000000011,9.827440370636479
1.7800000000000011,9.826914469787887
1.8000000000000012,9.82638817843846
1.8200000000000012,9.8258614936839
1.8400000000000012,9.825334437574728
1.8600000000000012,9.824806986688131
1.8800000000000012,9.824279154482516
1.9000000000000012,9.823750943137556
1.9200000000000013,9.823222369690491
1.9400000000000013,9.822693479279383
1.9600000000000013,9.822164284931606
1.9800000000000013,9.821634787355539
2.0000000000000013,9.821104997539983
2.0200000000000014,9.820574930124948
2.0400000000000014,9.820044598002708
2.0600000000000014,9.819514011834722
2.0800000000000014,9.818983182051552
2.1000000000000014,9.818452118391825
2.1200000000000014,9.817920834511185
2.1400000000000015,9.817389381063581
2.1600000000000015,9.816857721174022
2.1800000000000015,9.81632585579674
2.2000000000000015,9.81579380014613
2.2200000000000015,9.815261552263886
2.2400000000000015,9.814729116935805
2.2600000000000016,9.814196502542305
2.2800000000000016,9.813663712357174
2.3000000000000016,9.813130754106798
2.3200000000000016,9.812597628763214
2.3400000000000016,9.812064337181557
2.3600000000000017,9.811530899188677
2.3800000000000017,9.810997317138241
2.4000000000000017,9.810463593704405
2.4200000000000017,9.809929736001367
2.4400000000000017,9.809395818532332
2.4600000000000017,9.808861729216094
2.4800000000000018,9.808327578285486
2.5000000000000018,9.807793238938189
2.520000000000002,9.807258846462558
2.540000000000002,9.806724303117088
2.560000000000002,9.806189663876005
2.580000000000002,9.805654951579509
2.600000000000002,9.80512009512217
2.620000000000002,9.804585165067182
2.640000000000002,9.804050205642863
2.660000000000002,9.803515116376323
2.680000000000002,9.80297997055881
2.700000000000002,9.80244472453193
2.720000000000002,9.801909450053513
2.740000000000002,9.801374066007678
2.760000000000002,9.800838659199258
2.780000000000002,9.800303164279352
2.800000000000002,9.799767636822557
2.820000000000002,9.799232023416202
2.840000000000002,9.79869638163756
2.860000000000002,9.798160669920422
2.880000000000002,9.797624892283482
2.900000000000002,9.797089041995562
2.920000000000002,9.796553176861115
2.940000000000002,9.796017278835741
2.960000000000002,9.795481341084388
2.980000000000002,9.79494535261219
3.000000000000002,9.79440933478774
3.0200000000000022,9.793873287421905
3.0400000000000023,9.793337208752181
3.0600000000000023,9.792801100622668
3.0800000000000023,9.792264974541075
3.1000000000000023,9.791728812064946
3.1200000000000023,9.791192624518295
3.1400000000000023,9.79065641144849
3.1600000000000024,9.790120178315593
3.1800000000000024,9.789583953935775
3.2000000000000024,9.789047702387752
3.2200000000000024,9.788511443112794
3.2400000000000024,9.787975196822945
3.2600000000000025,9.78743895350718
3.2800000000000025,9.786902730477248
3.3000000000000025,9.786366502460847
3.3200000000000025,9.785830285067252
3.3400000000000025,9.785294088343552
3.3600000000000025,9.784757914664187
3.3800000000000026,9.784221712874523
3.4000000000000026,9.78368550702418
3.4200000000000026,9.78314934357266
3.4400000000000026,9.78261323645885
3.4600000000000026,9.782077151687309
3.4800000000000026,9.781541096542298
3.5000000000000027,9.781005072714871
3.5200000000000027,9.78046909166255
3.5400000000000027,9.779933148793667
3.5600000000000027,9.77939723617965
3.5800000000000027,9.778861370926755
3.6000000000000028,9.778325549868233
3.6200000000000028,9.77778977082401
3.640000000000003,9.777254043114304
3.660000000000003,9.776718369643124
3.680000000000003,9.776182727992897
3.700000000000003,9.775647140373783
3.720000000000003,9.775111598249532
3.740000000000003,9.774576116839075
3.760000000000003,9.774040688467112
3.780000000000003,9.773505318576914
3.800000000000003,9.77297000385903
3.820000000000003,9.772434748699341
3.840000000000003,9.771899555965856
3.860000000000003,9.771364426118225
3.880000000000003,9.770829359091227
3.900000000000003,9.770294355622902
3.920000000000003,9.769759417602565
3.940000000000003,9.769224548070511
3.960000000000003,9.768689748995882
3.980000000000003,9.768155021788163
4.000000000000003,9.767620367654335
4.020000000000002,9.767085793823076
4.040000000000002,9.76655130246835
4.060000000000001,9.766016888874129
4.080000000000001,9.76548254916165
4.1000000000000005,9.764948281077071
4.12,9.764414086316375
4.14,9.763879967518232
4.159999999999999,9.763345927413997
4.179999999999999,9.762811967543877
4.199999999999998,9.762278089231142
4.219999999999998,9.76174429356427
4.2399999999999975,9.761210582200658
4.259999999999997,9.760676953756017
4.279999999999997,9.760143406280473
4.299999999999996,9.759609948499083
4.319999999999996,9.75907657569763
4.339999999999995,9.75854329341406
4.359999999999995,9.75801009748327
4.379999999999995,9.757476993953013
4.399999999999994,9.756943976340157
4.419999999999994,9.756411053399773
4.439999999999993,9.75587821206896
4.459999999999993,9.755345456612469
4.479999999999992,9.754812789648621
4.499999999999992,9.754280214324547
4.519999999999992,9.753747734140646
4.539999999999991,9.753215351105958
4.559999999999991,9.752683065743584
4.57999999999999,9.752150878757387
4.59999999999999,9.751618791462
4.6199999999999894,9.751086802429779
4.639999999999989,9.750554908402139
4.659999999999989,9.750023107128694
4.679999999999988,9.749491398788447
4.699999999999988,9.74895978305889
4.719999999999987,9.74842825925198
4.739999999999987,9.747896828406759
4.7599999999999865,9.747365491280965
4.779999999999986,9.746834247581134
4.799999999999986,9.74630309674442
4.819999999999985,9.745772038334158
4.839999999999985,9.745241071490316
4.859999999999984,9.744710195571473
4.879999999999984,9.744179448383036
4.8999999999999835,9.743648764282026
4.919999999999983,9.743118200197227
4.939999999999983,9.742587743964883
4.959999999999982,9.742057368290972
4.979999999999982,9.741527067305084
4.999999999999981,9.740996890461183
5.019999999999981,9.740466794433644
5.0399999999999805,9.739936794765
5.05999999999998,9.739406890046247
5.07999999999998,9.738877078475642
5.099999999999979,9.738347362803623
5.119999999999979,9.737817733836284
5.139999999999978,9.737288200980402
5.159999999999978,9.73675875597781
5.1799999999999775,9.736229402851748
5.199999999999977,9.735700138566505
5.219999999999977,9.735170962828509
5.239999999999976,9.734641877793589
5.259999999999976,9.734112884721156
5.279999999999975,9.733583982954723
5.299999999999975,9.733055170708534
5.3199999999999745,9.732526447371853
5.339999999999974,9.731997813067498
5.359999999999974,9.731469270447224
5.379999999999973,9.730940816642349
5.399999999999973,9.730412449210199
5.419999999999972,9.729884166988926
5.439999999999972,9.729355969474788
5.4599999999999715,9.728827856105507
5.479999999999971,9.728299825594984
5.499999999999971,9.72777187675969
5.51999999999997,9.72724400900916
5.53999999999997,9.72671622185091
5.559999999999969,9.72618851473761
5.579999999999969,9.725660887298593
5.599999999999969,9.725133339805446
5.619999999999968,9.724605872584307
5.639999999999968,9.724078483044748
5.659999999999967,9.723551218703973
5.679999999999967,9.7230240452616
5.699999999999966,9.72249692688374
5.719999999999966,9.721969868640585
5.739999999999966,9.721442886939533
5.759999999999965,9.720915985164481
5.779999999999965,9.720389156829633
5.799999999999964,9.71986239826471
5.819999999999964,9.719335709698507
5.839999999999963,9.7188090921965
5.859999999999963,9.718282545589766
5.879999999999963,9.717756069493769
5.899999999999962,9.717229663135225
5.919999999999962,9.716703327579836
5.939999999999961,9.716177064209775
5.959999999999961,9.71565087295414
5.9799999999999605,9.715124754636744
5.99999999999996,9.714598710201368
6.01999999999996,9.714072739696059
6.039999999999959,9.713546843233658
6.059999999999959,9.71302101989016
6.079999999999958,9.712495268925037
6.099999999999958,9.711969590193812
6.1199999999999575,9.711443983569165
6.139999999999957,9.710918449223858
6.159999999999957,9.71039298755127
6.179999999999956,9.709867598793242
6.199999999999956,9.70934228286708
6.219999999999955,9.708817039513018
6.239999999999955,9.70829186844933
6.2599999999999545,9.70776676939508
6.279999999999954,9.70724173896436
6.299999999999954,9.706716778928724
6.319999999999953,9.706191892002025
6.339999999999953,9.705667077570018
6.359999999999952,9.705142334492942
6.379999999999952,9.70461766330099
6.3999999999999515,9.70409306444317
6.419999999999951,9.703568537901907
6.439999999999951,9.703044083746288
6.45999999999995,9.70251970222079
6.47999999999995,9.701995393694197
6.499999999999949,9.701471158570516
6.519999999999949,9.700946997321676
6.5399999999999485,9.700422910540581
6.559999999999948,9.699898896381395
6.579999999999948,9.699374953253157
6.599999999999947,9.698851080687998
6.619999999999947,9.698327278616535
6.639999999999946,9.69780354694455
6.659999999999946,9.697279885536275
6.6799999999999455,9.696756294032074
6.699999999999945,9.696232772022821
6.719999999999945,9.695709319097865
6.739999999999944,9.695185935148967
6.759999999999944,9.6946626204964
6.779999999999943,9.694139375475302
6.799999999999943,9.693616200718902
6.8199999999999426,9.69309309710645
6.839999999999942,9.692570064685329
6.859999999999942,9.69204710312543
6.879999999999941,9.691524211653388
6.899999999999941,9.691001387949655
6.91999999999994,9.690478633223261
6.93999999999994,9.689955949665077
6.95999999999994,9.689433335614435
6.979999999999939,9.68891078955776
6.999999999999939,9.688388311178887
7.019999999999938,9.687865900773632
7.039999999999938,9.687343558063153
7.059999999999937,9.686821282340837
7.079999999999937,9.686299076699337
7.099999999999937,9.68577695127414
7.119999999999936,9.685254889998447
7.139999999999936,9.68473288406377
7.159999999999935,9.684210939216191
7.179999999999935,9.683689060979951
7.1999999999999345,9.68316724673685
7.219999999999934,9.682645495379065
7.239999999999934,9.68212380636032
7.259999999999933,9.68160217997115
7.279999999999933,9.681080616490943
7.299999999999932,9.68055911525482
7.319999999999932,9.680037675583286
7.3399999999999315,9.679516297342653
7.359999999999931,9.678994980462157
7.379999999999931,9.67847372500319
7.39999999999993,9.677952529558937
7.41999999999993,9.677431395685916
7.439999999999929,9.6769103240589
7.459999999999929,9.67638931551506
7.4799999999999285,9.67586836934478
7.499999999999928,9.675347484987618
7.519999999999928,9.674826662124186
7.539999999999927,9.67430590053838
7.559999999999927,9.673785200840989
7.579999999999926,9.673264563538577
7.599999999999926,9.672743988453878
7.6199999999999255,9.672223472854936
7.639999999999925,9.671703015246683
7.659999999999925,9.671182616291608
7.679999999999924,9.670662275929459
7.699999999999924,9.670141992946897
7.719999999999923,9.669621768174492
7.739999999999923,9.669101600979845
7.7599999999999225,9.668581490519507
7.779999999999922,9.668061436863113
7.799999999999922,9.667541440553839
7.819999999999921,9.667021502189296
7.839999999999921,9.666501621192639
7.85999999999992,9.665981800799916
7.87999999999992,9.66546204377354
7.8999999999999195,9.664942350970561
7.919999999999919,9.66442272211012
7.939999999999919,9.663903156200377
7.959999999999918,9.663383653389435
7.979999999999918,9.662864213882681
7.999999999999917,9.662344837413727
8.019999999999918,9.661825523544133
8.039999999999917,9.661306272160596
8.059999999999917,9.660787082946158
8.079999999999917,9.660267955595101
8.099999999999916,9.659748890197559
8.119999999999916,9.659229885757902
8.139999999999915,9.65871094178428
8.159999999999915,9.65819205822841
8.179999999999914,9.65767323447761
8.199999999999914,9.657154469655744
8.219999999999914,9.656635762893487
8.239999999999913,9.656117113424393
8.259999999999913,9.655598520526818
8.279999999999912,9.655079983619904
8.299999999999912,9.654561503475337
8.319999999999911,9.65404307791719
8.339999999999911,9.653524705254945
8.35999999999991,9.653006385680808
8.37999999999991,9.652488119385813
8.39999999999991,9.651969905498394
8.41999999999991,9.651451743373993
8.439999999999909,9.650933632443554
8.459999999999908,9.650415572555557
8.479999999999908,9.649897562350265
8.499999999999908,9.64937960141524
8.519999999999907,9.648861689565777
8.539999999999907,9.648343826517245
8.559999999999906,9.647826011950524
8.579999999999906,9.647308245624924
8.599999999999905,9.646790527352545
8.619999999999905,9.64627285685608
8.639999999999905,9.64575523373735
8.659999999999904,9.645237657542653
8.679999999999904,9.644720124688325
8.699999999999903,9.644202639135514
8.719999999999903,9.643685198193424
8.739999999999903,9.643167804955436
8.759999999999902,9.642650456425637
8.779999999999902,9.642133152332264
8.799999999999901,9.641615892798658
8.8199999999999,9.641098678246147
8.8399999999999,9.640581508781318
8.8599999999999,9.640064384206815
8.8799999999999,9.639547304231728
8.899999999999899,9.639030268715427
8.919999999999899,9.63851327769607
8.939999999999898,9.637996331210914
8.959999999999898,9.637479429139145
8.979999999999897,9.636962571332056
8.999999999999897,9.636445757687202
9.019999999999897,9.635928987986834
9.039999999999896,9.635412261701333
9.059999999999896,9.634895578424027
9.079999999999895,9.63437893807538
9.099999999999895,9.633862340670037
9.119999999999894,9.63334578638447
9.139999999999894,9.632829275103774
9.159999999999894,9.63231280681298
9.179999999999893,9.631796381387684
9.199999999999893,9.631279998788877
9.219999999999892,9.630763659089848
9.239999999999892,9.630247362373016
9.259999999999891,9.629731108568109
9.279999999999891,9.629214897587712
9.29999999999989,9.628698729426146
9.31999999999989,9.628182605030862
9.33999999999989,9.62766652483675
9.35999999999989,9.62715048532872
9.379999999999889,9.626634487213948
9.399999999999888,9.62611850192918
9.419999999999888,9.625602555201002
9.439999999999888,9.62508667454378
9.459999999999887,9.624570847246744
9.479999999999887,9.624055062455941
9.499999999999886,9.623539314947976
9.519999999999886,9.623023611893093
9.539999999999885,9.622507956403789
9.559999999999885,9.621992346330735
9.579999999999885,9.621476779285365
9.599999999999884,9.620961255267996
9.619999999999884,9.620445775405397
9.639999999999883,9.619930340150482
9.659999999999883,9.619414949196965
9.679999999999882,9.618899602192528
9.699999999999882,9.618384299173199
9.719999999999882,9.617869040441633
9.739999999999881,9.617353826201464
9.75999999999988,9.616838656511733
9.77999999999988,9.616323531377764
9.79999999999988,9.615808450822827
9.81999999999988,9.615293414869495
9.839999999999879,9.614778423511313
9.859999999999879,9.614263476769656
9.879999999999878,9.61374857454753
9.899999999999878,9.613233716866867
9.919999999999877,9.612718903671723
9.939999999999877,9.612204133785564
9.959999999999877,9.611689408023825
9.979999999999876,9.61117472561744
9.999999999999876,9.610660088156521
